Material,Steel,
Geometry,Rectangular,
Width,3.5,mm
Thickness,2.514,mm
Length,50.8,mm
,,
Time,Extension,Load
(s),(mm),(N)
0,0,69.87
0.1,0.00017,69.93
0.2,0.00145,73.26
0.3,0.00427,79.17
0.4,0.00657,82.60
0.5,0.00871,85.93
0.6,0.01033,88.49
0.7,0.01187,91.11
0.8,0.01349,93.83
0.9,0.0152,96.93
1,0.01699,100.31
1.1,0.01861,103.67
1.2,0.02023,106.83
1.3,0.02194,110.33
1.4,0.02374,113.74
1.5,0.02553,116.94
1.6,0.02715,119.57
1.7,0.02869,122.15
1.8,0.03048,125.65
1.9,0.03244,129.36
2,0.03398,132.51
2.1,0.03552,135.66
2.2,0.03697,139.05
2.3,0.03885,143.75
2.4,0.0409,149.72
2.5,0.0426,155.13
2.6,0.04414,160.49
2.7,0.04568,166.36
2.8,0.04739,172.68
2.9,0.04918,179.79
3,0.05089,186.22
3.1,0.05234,191.81
3.2,0.05405,198.13
3.3,0.05592,205.32
3.4,0.05772,212.30
3.5,0.05934,218.43
3.6,0.06096,224.94
3.7,0.06258,231.91
3.8,0.06455,240.44
3.9,0.06625,247.89
4,0.06771,254.18
4.1,0.06916,260.77
4.2,0.07095,268.42
4.3,0.07291,278.41
4.4,0.07479,287.15
4.5,0.07633,294.08
4.6,0.07795,302.15
4.7,0.07957,310.57
4.8,0.08128,319.91
4.9,0.08299,329.29
5,0.08453,338.06
5.1,0.08615,348.11
5.2,0.08803,360.71
5.3,0.0899,374.28
5.4,0.09153,387.00
5.5,0.09306,399.31
5.6,0.09477,412.47
5.7,0.09656,428.24
5.8,0.09844,444.55
5.9,0.09989,457.12
6,0.10135,469.12
6.1,0.10305,482.89
6.2,0.1051,500.09
6.3,0.10698,516.77
6.4,0.10852,530.28
6.5,0.11014,543.95
6.6,0.11168,557.90
6.7,0.11347,573.73
6.8,0.11518,589.72
6.9,0.1168,604.45
7,0.11834,619.05
7.1,0.12013,635.35
7.2,0.12201,653.20
7.3,0.12371,669.57
7.4,0.12534,684.33
7.5,0.12696,699.38
7.6,0.12875,716.29
7.7,0.13063,734.94
7.8,0.13217,749.45
7.9,0.13362,763.33
8,0.13516,777.67
8.1,0.1372,796.32
8.2,0.13917,815.96
8.3,0.14071,831.93
8.4,0.14233,846.60
8.5,0.14386,861.82
8.6,0.14557,877.67
8.7,0.14736,893.08
8.8,0.14899,907.23
8.9,0.15052,921.12
9,0.15232,937.30
9.1,0.1542,955.74
9.2,0.1559,972.77
9.3,0.15753,987.38
9.4,0.15906,1001.73
9.5,0.16085,1018.16
9.6,0.16273,1036.07
9.7,0.16436,1051.59
9.8,0.16581,1065.32
9.9,0.16734,1078.91
10,0.16931,1096.60
10.1,0.17127,1116.46
10.2,0.17289,1132.38
10.3,0.17443,1146.34
10.4,0.17605,1160.19
10.5,0.17776,1176.80
10.6,0.17955,1193.66
10.7,0.18118,1209.30
10.8,0.18271,1222.90
10.9,0.18451,1238.88
11,0.18638,1256.79
11.1,0.18818,1274.00
11.2,0.18971,1287.81
11.3,0.19134,1302.37
11.4,0.19304,1317.38
11.5,0.19492,1334.63
11.6,0.19654,1350.06
11.7,0.19799,1363.35
11.8,0.19953,1376.00
11.9,0.20141,1392.41
12,0.20337,1411.41
12.1,0.20508,1427.73
12.2,0.2067,1441.11
12.3,0.20824,1454.16
12.4,0.20995,1469.12
12.5,0.21174,1485.34
12.6,0.21336,1500.46
12.7,0.2149,1513.97
12.8,0.21661,1528.63
12.9,0.21849,1544.90
13,0.22028,1561.70
13.1,0.2219,1575.61
13.2,0.22344,1588.84
13.3,0.22515,1603.46
13.4,0.22702,1619.76
13.5,0.22873,1635.80
13.6,0.23027,1648.56
13.7,0.23172,1660.75
13.8,0.23343,1674.67
13.9,0.23556,1686.22
14,0.23727,1703.16
14.1,0.23889,1716.16
14.2,0.24043,1729.64
14.3,0.24205,1743.47
14.4,0.24384,1759.57
14.5,0.24564,1775.03
14.6,0.24717,1788.41
14.7,0.24871,1801.43
14.8,0.25059,1817.54
14.9,0.25247,1834.25
15,0.25409,1848.07
15.1,0.25571,1860.90
15.2,0.25733,1874.42
15.3,0.25913,1889.93
15.4,0.26092,1905.75
15.5,0.26246,1918.38
15.6,0.26391,1929.61
15.7,0.26562,1942.69
15.8,0.26758,1958.82
15.9,0.26946,1973.01
16,0.27108,1985.56
16.1,0.27262,1997.80
16.2,0.27424,2011.12
16.3,0.27603,2026.09
16.4,0.27782,2041.16
16.5,0.27936,2054.11
16.6,0.2809,2065.99
16.7,0.28278,2081.45
16.8,0.28466,2097.49
16.9,0.28628,2111.20
17,0.2879,2123.43
17.1,0.28952,2136.15
17.2,0.29131,2150.74
17.3,0.29311,2166.25
17.4,0.29473,2178.44
17.5,0.29618,2189.89
17.6,0.29772,2199.35
17.7,0.29977,2214.46
17.8,0.30165,2231.23
17.9,0.30327,2244.24
18,0.3048,2255.83
18.1,0.30643,2267.91
18.2,0.30822,2282.23
18.3,0.30993,2296.58
18.4,0.31155,2309.60
18.5,0.313,2320.22
18.6,0.31496,2335.22
18.7,0.31684,2350.80
18.8,0.31855,2364.36
18.9,0.32009,2375.78
19,0.32171,2387.75
19.1,0.3235,2401.55
19.2,0.3253,2415.92
19.3,0.32692,2426.84
19.4,0.32837,2435.67
19.5,0.32991,2446.17
19.6,0.33178,2461.14
19.7,0.33383,2478.30
19.8,0.33546,2491.28
19.9,0.33699,2502.26
20,0.33861,2513.10
20.1,0.34032,2526.67
20.2,0.34212,2540.57
20.3,0.34374,2553.17
20.4,0.34519,2562.76
20.5,0.34707,2576.05
20.6,0.34903,2591.83
20.7,0.35074,2605.38
20.8,0.35228,2615.89
20.9,0.35381,2627.15
21,0.35561,2638.47
21.1,0.35748,2651.15
21.2,0.35911,2663.60
21.3,0.36064,2674.02
21.4,0.36218,2684.20
21.5,0.36389,2697.10
21.6,0.36594,2713.12
21.7,0.36764,2726.92
21.8,0.36918,2737.23
21.9,0.3708,2747.46
22,0.37251,2759.96
22.1,0.3743,2773.22
22.2,0.37601,2785.43
22.3,0.37738,2795.08
22.4,0.37917,2806.24
22.5,0.38113,2821.30
22.6,0.38293,2834.97
22.7,0.38446,2844.43
22.8,0.38609,2852.58
22.9,0.38779,2864.06
23,0.38967,2878.01
23.1,0.39129,2890.80
23.2,0.39283,2900.22
23.3,0.39428,2909.83
23.4,0.39599,2921.25
23.5,0.39804,2936.11
23.6,0.39992,2950.38
23.7,0.40145,2960.57
23.8,0.40299,2969.70
23.9,0.40461,2979.99
24,0.40641,2993.48
24.1,0.4082,3005.39
24.2,0.40965,3015.43
24.3,0.41127,3024.90
24.4,0.41324,3037.81
24.5,0.41503,3048.83
24.6,0.41665,3059.44
24.7,0.41827,3069.62
24.8,0.4199,3080.00
24.9,0.42177,3092.79
25,0.42348,3105.33
25.1,0.4251,3114.97
25.2,0.42656,3123.83
25.3,0.42818,3134.04
25.4,0.43014,3147.64
25.5,0.43202,3161.39
25.6,0.43364,3170.88
25.7,0.43518,3180.21
25.8,0.4368,3189.47
25.9,0.43859,3201.43
26,0.44039,3213.27
26.1,0.44184,3222.67
26.2,0.44346,3228.88
26.3,0.44534,3241.66
26.4,0.44722,3254.30
26.5,0.44884,3264.64
26.6,0.45046,3273.87
26.7,0.45208,3283.25
26.8,0.45388,3294.98
26.9,0.45567,3307.36
27,0.45729,3316.04
27.1,0.45874,3324.34
27.2,0.46037,3333.13
27.3,0.46216,3344.47
27.4,0.46421,3359.14
27.5,0.46583,3368.62
27.6,0.46745,3376.80
27.7,0.46899,3386.04
27.8,0.4707,3395.95
27.9,0.47249,3404.65
28,0.47411,3414.05
28.1,0.47556,3421.85
28.2,0.47744,3433.12
28.3,0.47941,3445.87
28.4,0.48103,3456.10
28.5,0.48265,3464.39
28.6,0.48427,3472.95
28.7,0.48598,3482.76
28.8,0.48794,3495.23
28.9,0.48957,3504.38
29,0.49102,3511.66
29.1,0.49255,3519.21
29.2,0.49435,3529.35
29.3,0.4964,3543.31
29.4,0.4981,3553.33
29.5,0.49964,3560.27
29.6,0.50118,3568.90
29.7,0.50289,3577.52
29.8,0.50468,3585.49
29.9,0.5063,3594.77
30,0.50784,3602.90
30.1,0.50963,3612.44
30.2,0.51151,3624.39
30.3,0.5133,3634.79
30.4,0.51484,3642.26
30.5,0.51629,3648.71
30.6,0.51817,3658.92
30.7,0.52013,3670.34
30.8,0.52175,3678.99
30.9,0.52321,3684.78
31,0.52457,3690.47
31.1,0.52645,3699.42
31.2,0.5285,3711.91
31.3,0.53029,3721.88
31.4,0.53183,3727.67
31.5,0.53345,3734.43
31.6,0.53499,3741.65
31.7,0.53678,3750.96
31.8,0.53849,3758.50
31.9,0.53994,3763.36
32,0.54165,3770.91
32.1,0.54361,3782.73
32.2,0.54549,3792.72
32.3,0.54703,3799.79
32.4,0.54856,3806.56
32.5,0.55027,3813.85
32.6,0.55223,3825.24
32.7,0.55394,3834.63
32.8,0.55548,3840.47
32.9,0.55693,3846.48
33,0.55855,3854.15
33.1,0.56052,3865.19
33.2,0.56248,3876.73
33.3,0.56402,3883.13
33.4,0.56555,3889.40
33.5,0.56718,3896.87
33.6,0.56897,3905.86
33.7,0.57059,3914.12
33.8,0.57221,3921.87
33.9,0.57384,3929.01
34,0.57571,3936.99
34.1,0.57759,3946.88
34.2,0.57921,3954.37
34.3,0.58084,3961.79
34.4,0.58237,3969.02
34.5,0.58425,3978.47
34.6,0.58613,3988.95
34.7,0.58767,3995.94
34.8,0.58912,4001.71
34.9,0.59066,4008.45
35,0.59262,4019.56
35.1,0.59467,4031.97
35.2,0.5962,4038.66
35.3,0.59774,4044.82
35.4,0.59936,4051.96
35.5,0.60107,4060.74
35.6,0.60278,4069.56
35.7,0.6044,4077.12
35.8,0.60602,4084.86
35.9,0.6079,4093.85
36,0.60978,4104.67
36.1,0.6114,4112.73
36.2,0.61302,4116.81
36.3,0.61456,4123.65
36.4,0.61644,4133.91
36.5,0.61832,4145.07
36.6,0.61985,4152.21
36.7,0.62131,4158.00
36.8,0.62284,4164.59
36.9,0.62481,4174.74
37,0.62686,4188.26
37.1,0.62848,4195.21
37.2,0.63002,4201.10
37.3,0.63155,4208.56
37.4,0.63326,4216.45
37.5,0.63497,4225.43
37.6,0.63659,4233.26
37.7,0.6383,4240.93
37.8,0.64,4249.07
37.9,0.64188,4260.00
38,0.64368,4268.90
38.1,0.64521,4275.40
38.2,0.64675,4279.31
38.3,0.64854,4287.76
38.4,0.65042,4299.20
38.5,0.65213,4307.98
38.6,0.65358,4313.54
38.7,0.65503,4319.34
38.8,0.65691,4329.02
38.9,0.65896,4342.13
39,0.66067,4350.79
39.1,0.6622,4356.06
39.2,0.66374,4363.33
39.3,0.66545,4370.90
39.4,0.66716,4379.98
39.5,0.66878,4387.67
39.6,0.67048,4395.57
39.7,0.67211,4403.51
39.8,0.67407,4413.91
39.9,0.67586,4423.38
40,0.6774,4430.07
40.1,0.67894,4436.61
40.2,0.68065,4444.07
40.3,0.68269,4453.29
40.4,0.68432,4461.95
40.5,0.68585,4468.11
40.6,0.68713,4473.41
40.7,0.68901,4482.22
40.8,0.69106,4495.06
40.9,0.69285,4505.40
41,0.69439,4510.84
41.1,0.69593,4517.51
41.2,0.69755,4525.07
41.3,0.69934,4534.37
41.4,0.70114,4543.16
41.5,0.70267,4550.59
41.6,0.70438,4557.80
41.7,0.70609,4567.02
41.8,0.70788,4575.89
41.9,0.70959,4584.21
42,0.71104,4590.26
42.1,0.71283,4598.04
42.2,0.7148,4609.02
42.3,0.7165,4615.72
42.4,0.71804,4621.55
42.5,0.71941,4627.39
42.6,0.72111,4634.92
42.7,0.72316,4647.53
42.8,0.72504,4658.26
42.9,0.72658,4664.40
43,0.7282,4671.20
43.1,0.72974,4678.30
43.2,0.73153,4687.30
43.3,0.73332,4696.99
43.4,0.73486,4703.74
43.5,0.73648,4710.50
43.6,0.73828,4719.77
43.7,0.74015,4730.28
43.8,0.74178,4737.78
43.9,0.7434,4744.73
44,0.74494,4751.24
44.1,0.7469,4761.26
44.2,0.74869,4771.54
44.3,0.75023,4775.37
44.4,0.75168,4781.08
44.5,0.75322,4787.65
44.6,0.75527,4799.46
44.7,0.75723,4811.39
44.8,0.75877,4817.96
44.9,0.76039,4824.53
45,0.76193,4831.93
45.1,0.76372,4840.08
45.2,0.76543,4848.86
45.3,0.76705,4856.29
45.4,0.76859,4863.71
45.5,0.77038,4871.58
45.6,0.77226,4882.02
45.7,0.77405,4891.07
45.8,0.77559,4897.22
45.9,0.77712,4903.69
46,0.77892,4912.76
46.1,0.78088,4923.59
46.2,0.78242,4927.92
46.3,0.78387,4933.14
46.4,0.78541,4939.23
46.5,0.78737,4950.47
46.6,0.78933,4962.52
46.7,0.79104,4970.37
46.8,0.79258,4976.48
46.9,0.79411,4983.58
47,0.79582,4991.48
47.1,0.79761,5000.68
47.2,0.79924,5008.32
47.3,0.80086,5014.80
47.4,0.80248,5022.51
47.5,0.80445,5032.75
47.6,0.80624,5042.67
47.7,0.80778,5048.75
47.8,0.8094,5055.57
47.9,0.8111,5063.01
48,0.81307,5071.89
48.1,0.81469,5079.02
48.2,0.81614,5084.21
48.3,0.81759,5090.05
48.4,0.81947,5099.30
48.5,0.82152,5112.37
48.6,0.82323,5121.00
48.7,0.82477,5126.63
48.8,0.8263,5133.40
48.9,0.82792,5140.53
49,0.8298,5149.61
49.1,0.83151,5158.32
49.2,0.83305,5164.59
49.3,0.83467,5171.37
49.4,0.83655,5181.41
49.5,0.83843,5191.27
49.6,0.83996,5197.87
49.7,0.8415,5204.01
49.8,0.84321,5209.67
49.9,0.84509,5218.21
50,0.84688,5227.76
50.1,0.84833,5233.51
50.2,0.84978,5238.92
50.3,0.85157,5247.15
50.4,0.85362,5259.90
50.5,0.85542,5269.00
50.6,0.85695,5274.82
50.7,0.85841,5279.51
50.8,0.8602,5288.40
50.9,0.86199,5297.24
51,0.8637,5306.02
51.1,0.86515,5311.90
51.2,0.86677,5318.17
51.3,0.86874,5328.82
51.4,0.87061,5338.61
51.5,0.87215,5342.82
51.6,0.87377,5348.43
51.7,0.87548,5356.07
51.8,0.87727,5365.06
51.9,0.87898,5373.97
52,0.88052,5379.82
52.1,0.88197,5385.25
52.2,0.88368,5392.52
52.3,0.88573,5404.61
52.4,0.8876,5414.76
52.5,0.88914,5420.64
52.6,0.89059,5425.42
52.7,0.8923,5432.88
52.8,0.89409,5442.02
52.9,0.89589,5450.60
53,0.89742,5456.78
53.1,0.89905,5461.02
53.2,0.90084,5469.28
53.3,0.90272,5478.32
53.4,0.90442,5487.01
53.5,0.90588,5492.45
53.6,0.90758,5499.35
53.7,0.90938,5508.47
53.8,0.91125,5518.25
53.9,0.91279,5524.60
54,0.91424,5530.00
54.1,0.91578,5535.61
54.2,0.91783,5546.98
54.3,0.91979,5558.02
54.4,0.92133,5563.84
54.5,0.92287,5569.55
54.6,0.92449,5573.32
54.7,0.92628,5581.80
54.8,0.92807,5590.56
54.9,0.9297,5598.03
55,0.93115,5603.75
55.1,0.93294,5611.58
55.2,0.93491,5622.23
55.3,0.93661,5630.19
55.4,0.93815,5635.72
55.5,0.93977,5642.29
55.6,0.94156,5650.38
55.7,0.94336,5659.70
55.8,0.94498,5666.62
55.9,0.94643,5671.68
56,0.94797,5675.02
56.1,0.94993,5684.22
56.2,0.9519,5695.05
56.3,0.95352,5702.41
56.4,0.95505,5707.27
56.5,0.95668,5713.39
56.6,0.95838,5722.31
56.7,0.96018,5730.81
56.8,0.96189,5738.11
56.9,0.96334,5743.16
57,0.96513,5750.72
57.1,0.96701,5760.82
57.2,0.9688,5769.03
57.3,0.97034,5774.59
57.4,0.97196,5780.44
57.5,0.97367,5785.91
57.6,0.97546,5794.16
57.7,0.97717,5802.02
57.8,0.9787,5807.81
57.9,0.98007,5812.17
58,0.98203,5821.47
58.1,0.98408,5832.95
58.2,0.98579,5841.09
58.3,0.98733,5846.27
58.4,0.98878,5850.91
58.5,0.99057,5859.73
58.6,0.99237,5868.13
58.7,0.99407,5874.68
58.8,0.99552,5878.21
58.9,0.99723,5884.35
59,0.99928,5895.63
59.1,1.00099,5903.98
59.2,1.00253,5909.38
59.3,1.00415,5915.84
59.4,1.00594,5923.42
59.5,1.00773,5931.87
59.6,1.00936,5938.91
59.7,1.01089,5944.55
59.8,1.01226,5947.87
59.9,1.01414,5954.64
60,1.01619,5965.32
60.1,1.01798,5974.35
60.2,1.01952,5979.17
60.3,1.02097,5983.86
60.4,1.02276,5991.96
60.5,1.02455,6000.17
60.6,1.02626,6007.80
60.7,1.02763,6012.87
60.8,1.02942,6018.27
60.9,1.03138,6028.96
61,1.03318,6037.13
61.1,1.03471,6041.55
61.2,1.03634,6045.76
61.3,1.03796,6051.82
61.4,1.03984,6060.90
61.5,1.04163,6069.57
61.6,1.04317,6074.65
61.7,1.04462,6079.60
61.8,1.04633,6086.06
61.9,1.0482,6095.81
62,1.05008,6104.54
62.1,1.0517,6110.01
62.2,1.05316,6113.72
62.3,1.05495,6120.93
62.4,1.05674,6129.37
62.5,1.05845,6136.87
62.6,1.05999,6142.14
62.7,1.06152,6146.26
62.8,1.06349,6156.33
62.9,1.06536,6165.26
63,1.06699,6169.92
63.1,1.06852,6174.58
63.2,1.07015,6180.50
63.3,1.07194,6188.30
63.4,1.07382,6197.11
63.5,1.07535,6202.56
63.6,1.07681,6207.10
63.7,1.07834,6212.75
63.8,1.08022,6220.86
63.9,1.08227,6230.63
64,1.08398,6236.34
64.1,1.08543,6240.56
64.2,1.08705,6245.59
64.3,1.08884,6253.84
64.4,1.09064,6262.00
64.5,1.09226,6268.02
64.6,1.09363,6271.85
64.7,1.09559,6280.14
64.8,1.09747,6289.02
64.9,1.09918,6294.25
65,1.10071,6298.89
65.1,1.10225,6304.16
65.2,1.10413,6311.90
65.3,1.10592,6320.48
65.4,1.10754,6326.18
65.5,1.10908,6331.14
65.6,1.11053,6335.44
65.7,1.11241,6342.62
65.8,1.11454,6353.69
65.9,1.11617,6359.72
66,1.1177,6363.21
66.1,1.11924,6368.51
66.2,1.12095,6374.64
66.3,1.12283,6383.46
66.4,1.12436,6389.59
66.5,1.1259,6392.80
66.6,1.12769,6400.39
66.7,1.12966,6408.40
66.8,1.13136,6414.55
66.9,1.1329,6419.21
67,1.13444,6424.10
67.1,1.13623,6430.83
67.2,1.13811,6439.29
67.3,1.13973,6445.08
67.4,1.14127,6448.74
67.5,1.14272,6452.27
67.6,1.14443,6458.18
67.7,1.14656,6468.33
67.8,1.14835,6475.36
67.9,1.14989,6478.08
68,1.15143,6482.62
68.1,1.15313,6487.78
68.2,1.15484,6494.41
68.3,1.15655,6500.33
68.4,1.158,6504.66
68.5,1.15979,6509.54
68.6,1.16167,6518.36
68.7,1.16355,6525.30
68.8,1.16509,6529.37
68.9,1.16662,6533.01
69,1.16833,6538.44
69.1,1.17021,6546.10
69.2,1.172,6553.86
69.3,1.17354,6556.59
69.4,1.17499,6559.94
69.5,1.17661,6564.89
69.6,1.17866,6574.54
69.7,1.18054,6582.79
69.8,1.18208,6585.60
69.9,1.1837,6589.87
70,1.18532,6594.87
70.1,1.18703,6600.89
70.2,1.18874,6607.09
70.3,1.19028,6611.61
70.4,1.1919,6615.47
70.5,1.19386,6624.14
70.6,1.19574,6631.30
70.7,1.19728,6635.59
70.8,1.19873,6638.34
70.9,1.20044,6643.32
71,1.2024,6651.75
71.1,1.20428,6659.07
71.2,1.20573,6661.46
71.3,1.20709,6664.46
71.4,1.20872,6668.31
71.5,1.21077,6678.08
71.6,1.21273,6686.66
71.7,1.21435,6690.39
71.8,1.21589,6693.20
71.9,1.21751,6698.08
72,1.21922,6703.54
72.1,1.22093,6710.17
72.2,1.22255,6714.53
72.3,1.224,6716.63
72.4,1.22596,6725.34
72.5,1.22793,6733.24
72.6,1.22955,6737.50
72.7,1.23109,6741.14
72.8,1.23262,6744.70
72.9,1.2345,6751.52
73,1.23638,6759.82
73.1,1.238,6763.12
73.2,1.23937,6765.73
73.3,1.24099,6769.45
73.4,1.24278,6775.85
73.5,1.24492,6785.42
73.6,1.24654,6790.62
73.7,1.24808,6792.56
73.8,1.24961,6796.83
73.9,1.25132,6801.90
74,1.25303,6807.67
74.1,1.25474,6812.26
74.2,1.25627,6816.34
74.3,1.25807,6821.35
74.4,1.26003,6829.79
74.5,1.26174,6834.65
74.6,1.26327,6837.92
74.7,1.26481,6841.34
74.8,1.26652,6846.25
74.9,1.26848,6853.59
75,1.27019,6858.97
75.1,1.27164,6860.93
75.2,1.27309,6863.42
75.3,1.27489,6869.80
75.4,1.27702,6879.25
75.5,1.27873,6884.40
75.6,1.28026,6886.13
75.7,1.2818,6889.93
75.8,1.28351,6894.39
75.9,1.28522,6900.05
76,1.28684,6904.29
76.1,1.28846,6908.16
76.2,1.29017,6913.10
76.3,1.29213,6920.36
76.4,1.29393,6925.93
76.5,1.29546,6929.09
76.6,1.29691,6931.41
76.7,1.29879,6936.83
76.8,1.30067,6944.05
76.9,1.30238,6949.07
77,1.30383,6950.71
77.1,1.30528,6953.13
77.2,1.30699,6957.42
77.3,1.30921,6967.63
77.4,1.311,6973.05
77.5,1.31245,6974.16
77.6,1.31408,6977.52
77.7,1.3157,6981.41
77.8,1.3174,6986.85
77.9,1.31903,6991.18
78,1.32073,6995.31
78.1,1.32236,6999.27
78.2,1.32424,7005.67
78.3,1.32611,7011.81
78.4,1.32765,7014.49
78.5,1.32919,7017.08
78.6,1.33081,7020.45
78.7,1.33277,7027.81
78.8,1.33457,7033.34
78.9,1.3361,7035.35
79,1.33747,7036.82
79.1,1.33918,7040.28
79.2,1.34131,7049.58
79.3,1.34319,7056.16
79.4,1.34464,7057.42
79.5,1.34626,7059.60
79.6,1.3478,7062.88
79.7,1.34959,7068.15
79.8,1.35122,7072.17
79.9,1.35284,7076.15
80,1.35446,7079.88
80.1,1.35634,7085.06
80.2,1.3583,7091.67
80.3,1.35984,7094.51
80.4,1.36138,7096.63
80.5,1.363,7099.10
80.6,1.36496,7106.26
80.7,1.36684,7112.12
80.8,1.36829,7113.88
80.9,1.36974,7115.29
81,1.37128,7117.16
81.1,1.37341,7125.70
81.2,1.37538,7133.02
81.3,1.37691,7134.52
81.4,1.37845,7135.78
81.5,1.37999,7138.92
81.6,1.38178,7143.15
81.7,1.38349,7148.24
81.8,1.3852,7152.04
81.9,1.38673,7154.36
82,1.38853,7158.92
82.1,1.39032,7163.57
82.2,1.39203,7167.58
82.3,1.39356,7170.03
82.4,1.3951,7171.74
82.5,1.39706,7178.26
82.6,1.39894,7184.08
82.7,1.40056,7186.12
82.8,1.40193,7187.20
82.9,1.40347,7188.29
83,1.40543,7195.20
83.1,1.40748,7203.34
83.2,1.4091,7205.21
83.3,1.41064,7206.22
83.4,1.41218,7208.76
83.5,1.41388,7212.46
83.6,1.41568,7217.71
83.7,1.41738,7221.11
83.8,1.41884,7222.46
83.9,1.42063,7226.48
84,1.42251,7232.39
84.1,1.4243,7236.49
84.2,1.42584,7238.17
84.3,1.42737,7239.71
84.4,1.42917,7243.71
84.5,1.43113,7250.64
84.6,1.43275,7252.96
84.7,1.4342,7253.60
84.8,1.43566,7254.48
84.9,1.43745,7258.99
85,1.43967,7267.69
85.1,1.44129,7270.60
85.2,1.44283,7271.00
85.3,1.44445,7273.17
85.4,1.44607,7276.13
85.5,1.44786,7280.44
85.6,1.44949,7283.64
85.7,1.45111,7285.62
85.8,1.45273,7288.56
85.9,1.45461,7293.49
86,1.45649,7298.57
86.1,1.45803,7299.86
86.2,1.45956,7301.10
86.3,1.46127,7303.97
86.4,1.46323,7310.12
86.5,1.46494,7313.68
86.6,1.46639,7313.81
86.7,1.46776,7313.98
86.8,1.46964,7318.41
86.9,1.47169,7326.02
87,1.47348,7329.81
87.1,1.47502,7329.99
87.2,1.47664,7331.56
87.3,1.47826,7333.72
87.4,1.47997,7337.70
87.5,1.48168,7340.71
87.6,1.4833,7342.75
87.7,1.48492,7345.41
87.8,1.48671,7349.25
87.9,1.48868,7354.69
88,1.4903,7356.69
88.1,1.49184,7357.41
88.2,1.49346,7359.27
88.3,1.49534,7363.86
88.4,1.49721,7368.80
88.5,1.49867,7368.58
88.6,1.50003,7368.55
88.7,1.50174,7370.79
88.8,1.50387,7378.72
88.9,1.50575,7383.54
89,1.5072,7383.28
89.1,1.50883,7383.99
89.2,1.51036,7385.58
89.3,1.51216,7388.70
89.4,1.51395,7393.27
89.5,1.51549,7394.79
89.6,1.51711,7395.56
89.7,1.51882,7399.02
89.8,1.52078,7404.43
89.9,1.5224,7406.50
90,1.52402,7407.13
90.1,1.52565,7408.81
90.2,1.52744,7412.14
90.3,1.52932,7416.83
90.4,1.53085,7417.91
90.5,1.53231,7417.79
90.6,1.53384,7418.54
90.7,1.53598,7425.36
90.8,1.53794,7431.18
90.9,1.53939,7431.09
91,1.54084,7430.26
91.1,1.54255,7432.28
91.2,1.54434,7436.28
91.3,1.54614,7440.42
91.4,1.54767,7441.02
91.5,1.54921,7440.67
91.6,1.55109,7445.55
91.7,1.55305,7450.47
91.8,1.55467,7452.36
91.9,1.5563,7452.19
92,1.55792,7454.06
92.1,1.55963,7456.60
92.2,1.5615,7460.25
92.3,1.56304,7461.19
92.4,1.56449,7461.23
92.5,1.56594,7461.39
92.6,1.56799,7467.58
92.7,1.57004,7473.29
92.8,1.57167,7474.40
92.9,1.57312,7473.55
93,1.57474,7473.90
93.1,1.57653,7477.46
93.2,1.57832,7480.19
93.3,1.57995,7481.28
93.4,1.58148,7481.68
93.5,1.58319,7484.04
93.6,1.58507,7487.92
93.7,1.58686,7491.98
93.8,1.5884,7491.41
93.9,1.58994,7492.24
94,1.59173,7494.95
94.1,1.59369,7499.72
94.2,1.59523,7501.26
94.3,1.59677,7501.21
94.4,1.59813,7500.71
94.5,1.60001,7504.05
94.6,1.60215,7510.92
94.7,1.60385,7512.76
94.8,1.60539,7512.30
94.9,1.60684,7511.83
95,1.60863,7515.04
95.1,1.61043,7518.65
95.2,1.61214,7520.41
95.3,1.61367,7520.31
95.4,1.61529,7521.73
95.5,1.61726,7525.56
95.6,1.61905,7529.42
95.7,1.62059,7529.12
95.8,1.62221,7529.37
95.9,1.62392,7531.03
96,1.6258,7529.24
96.1,1.6275,7529.57
96.2,1.62895,7529.76
96.3,1.63032,7529.59
96.4,1.6322,7533.15
96.5,1.63425,7540.09
96.6,1.63604,7543.31
96.7,1.63758,7543.18
96.8,1.63903,7542.34
96.9,1.64082,7545.85
